   0.0000    340359
   0.0050    271085
   0.0100    215906
   0.0150    180712
   0.0200    162187
   0.0250    148201
   0.0300    136885
   0.0350    133207
   0.0400    128651
   0.0450    118113
   0.0500    110408
   0.0550    102454
   0.0600     92635
   0.0650     87736
   0.0700     85457
   0.0750     82802
   0.0800     81576
   0.0850     80787
   0.0900     79513
   0.0950     76002
   0.1000     73831
   0.1050     70555
   0.1100     66100
   0.1150     59148
   0.1200     53108
   0.1250     48202
   0.1300     45052
   0.1350     40988
   0.1400     35794
   0.1450     30005
   0.1500     25930
   0.1550     23119
   0.1600     21001
   0.1650     18949
   0.1700     17270
   0.1750     16081
   0.1800     14877
   0.1850     13383
   0.1900     12140
   0.1950     10813
   0.2000      9906
   0.2050      8535
   0.2100      7408
   0.2150      6425
   0.2200      5293
   0.2250      4403
   0.2300      3655
   0.2350      2967
   0.2400      2467
   0.2450      1920
   0.2500      1587
   0.2550      1321
   0.2600      1125
   0.2650       988
   0.2700       849
   0.2750       745
   0.2800       664
   0.2850       632
   0.2900       575
   0.2950       528
   0.3000       462
   0.3050       434
   0.3100       419
   0.3150       373
   0.3200       356
   0.3250       335
   0.3300       324
   0.3350       327
   0.3400       304
   0.3450       274
   0.3500       237
   0.3550       242
   0.3600       238
   0.3650       231
   0.3700       181
   0.3750       193
   0.3800       186
   0.3850       172
   0.3900       177
   0.3950       158
   0.4000       158
   0.4050       158
   0.4100       163
   0.4150       146
   0.4200       138
   0.4250       149
   0.4300       133
   0.4350       117
   0.4400       145
   0.4450       122
   0.4500       126
   0.4550       110
   0.4600       123
   0.4650       102
   0.4700        97
   0.4750        93
   0.4800       103
   0.4850        81
   0.4900        88
   0.4950        81
   0.5000        92
   0.5050        84
   0.5100        83
   0.5150        81
   0.5200        76
   0.5250        72
   0.5300        72
   0.5350        71
   0.5400        74
   0.5450        74
   0.5500        76
   0.5550        70
   0.5600        62
   0.5650        76
   0.5700        62
   0.5750        54
   0.5800        50
   0.5850        69
   0.5900        59
   0.5950        62
   0.6000        50
   0.6050        49
   0.6100        49
   0.6150        39
   0.6200        51
   0.6250        54
   0.6300        46
   0.6350        37
   0.6400        57
   0.6450        55
   0.6500        49
   0.6550        42
   0.6600        46
   0.6650        48
   0.6700        38
   0.6750        47
   0.6800        41
   0.6850        47
   0.6900        52
   0.6950        44
   0.7000        40
   0.7050        55
   0.7100        55
   0.7150        36
   0.7200        33
   0.7250        37
   0.7300        29
   0.7350        41
   0.7400        44
   0.7450        31
   0.7500        24
   0.7550        34
   0.7600        27
   0.7650        33
   0.7700        32
   0.7750        21
   0.7800        26
   0.7850        20
   0.7900        32
   0.7950        22
   0.8000        22
   0.8050        21
   0.8100        15
   0.8150        26
   0.8200        14
   0.8250        17
   0.8300        15
   0.8350        24
   0.8400        17
   0.8450        13
   0.8500        17
   0.8550        17
   0.8600        15
   0.8650        17
   0.8700        29
   0.8750        19
   0.8800        16
   0.8850        17
   0.8900        22
   0.8950        15
   0.9000        19
   0.9050        14
   0.9100        12
   0.9150        10
   0.9200        11
   0.9250        20
   0.9300        14
   0.9350        13
   0.9400        10
   0.9450        12
   0.9500         8
   0.9550        16
   0.9600        11
   0.9650        15
   0.9700         6
   0.9750         6
   0.9800        16
   0.9850         8
   0.9900         8
   0.9950        11
   1.0000         9
   1.0050        12
   1.0100        14
   1.0150         8
   1.0200         9
   1.0250         9
   1.0300         9
   1.0350         8
   1.0400         4
   1.0450        10
   1.0500        10
   1.0550         3
   1.0600         6
   1.0650        10
   1.0700         9
   1.0750         7
   1.0800        12
   1.0850        10
   1.0900         7
   1.0950         7
   1.1000        10
   1.1050         4
   1.1100         6
   1.1150         6
   1.1200        12
   1.1250         3
   1.1300        11
   1.1350        10
   1.1400         8
   1.1450         5
   1.1500         4
   1.1550         2
   1.1600         2
   1.1650         6
   1.1700         6
   1.1750         5
   1.1800         4
   1.1850         6
   1.1900         5
   1.1950         9
   1.2000         5
   1.2050         5
   1.2100         8
   1.2150         3
   1.2200         2
   1.2250         6
   1.2300         6
   1.2350         7
   1.2400         8
   1.2450         8
   1.2500         2
   1.2550         3
   1.2600         4
   1.2650         3
   1.2700         3
   1.2750         1
   1.2800         7
   1.2850         7
   1.2900         2
   1.2950         6
   1.3000         5
   1.3050         1
   1.3100         0
   1.3150         6
   1.3200         3
   1.3250         2
   1.3300         4
   1.3350         1
   1.3400         1
   1.3450         4
   1.3500         3
   1.3550         1
   1.3600         4
   1.3650         2
   1.3700         1
   1.3750         4
   1.3800         1
   1.3850         4
   1.3900         4
   1.3950         1
   1.4000         4
   1.4050         1
   1.4100         1
   1.4150         3
   1.4200         1
   1.4250         3
   1.4300         3
   1.4350         1
   1.4400         1
   1.4450         1
   1.4500         2
   1.4550         2
   1.4600         2
   1.4650         1
   1.4700         1
   1.4750         5
   1.4800         2
   1.4850         0
   1.4900         2
   1.4950         0
   1.5000         1
   1.5050         2
   1.5100         4
   1.5150         0
   1.5200         2
   1.5250         1
   1.5300         1
   1.5350         1
   1.5400         4
   1.5450         1
   1.5500         3
   1.5550         0
   1.5600         0
   1.5650         1
   1.5700         3
   1.5750         0
   1.5800         2
   1.5850         2
   1.5900         2
   1.5950         1
   1.6000         1
   1.6050         3
   1.6100         2
   1.6150         1
   1.6200         1
   1.6250         0
   1.6300         2
   1.6350         2
   1.6400         4
   1.6450         0
   1.6500         0
   1.6550         0
   1.6600         2
   1.6650         2
   1.6700         2
   1.6750         1
   1.6800         0
   1.6850         0
   1.6900         2
   1.6950         0
   1.7000         0
   1.7050         0
   1.7100         1
   1.7150         0
   1.7200         0
   1.7250         0
   1.7300         0
   1.7350         1
   1.7400         1
   1.7450         0
   1.7500         1
   1.7550         2
   1.7600         1
   1.7650         1
   1.7700         2
   1.7750         1
   1.7800         1
   1.7850         3
   1.7900         0
   1.7950         0
   1.8000         0
   1.8050         1
   1.8100         1
   1.8150         0
   1.8200         1
   1.8250         2
   1.8300         1
   1.8350         0
   1.8400         0
   1.8450         0
   1.8500         0
   1.8550         1
   1.8600         1
   1.8650         0
   1.8700         1
   1.8750         0
   1.8800         0
   1.8850         0
   1.8900         1
   1.8950         0
   1.9000         1
   1.9050         0
   1.9100         1
   1.9150         0
   1.9200         0
   1.9250         0
   1.9300         0
   1.9350         1
   1.9400         2
   1.9450         0
   1.9500         1
   1.9550         0
   1.9600         0
   1.9650         1
   1.9700         3
   1.9750         0
   1.9800         2
   1.9850         1
   1.9900         1
   1.9950         1
   2.0000         2
   2.0050         1
   2.0100         0
   2.0150         1
   2.0200         1
   2.0250         1
   2.0300         0
   2.0350         0
   2.0400         0
   2.0450         1
   2.0500         1
   2.0550         0
   2.0600         0
   2.0650         1
   2.0700         0
   2.0750         1
   2.0800         2
   2.0850         0
   2.0900         0
   2.0950         0
   2.1000         0
   2.1050         0
   2.1100         0
   2.1150         1
   2.1200         0
   2.1250         1
   2.1300         0
   2.1350         1
   2.1400         0
   2.1450         0
   2.1500         3
   2.1550         1
   2.1600         1
   2.1650         0
   2.1700         1
   2.1750         0
   2.1800         1
   2.1850         1
   2.1900         0
   2.1950         0
   2.2000         0
   2.2050         0
   2.2100         1
   2.2150         0
   2.2200         1
   2.2250         1
   2.2300         0
   2.2350         1
   2.2400         0
   2.2450         0
   2.2500         0
   2.2550         0
   2.2600         0
   2.2650         1
   2.2700         1
   2.2750         1
   2.2800         0
   2.2850         0
   2.2900         1
   2.2950         1
   2.3000         0
   2.3050         1
   2.3100         0
   2.3150         0
   2.3200         0
   2.3250         1
   2.3300         1
   2.3350         1
   2.3400         0
   2.3450         0
   2.3500         0
   2.3550         0
   2.3600         0
   2.3650         1
   2.3700         0
   2.3750         2
   2.3800         0
   2.3850         0
   2.3900         1
   2.3950         2
   2.4000         0
   2.4050         1
   2.4100         0
   2.4150         0
   2.4200         0
   2.4250         0
   2.4300         1
   2.4350         1
   2.4400         0
   2.4450         0
   2.4500         0
   2.4550         0
   2.4600         0
   2.4650         0
   2.4700         0
   2.4750         0
   2.4800         0
   2.4850         1
   2.4900         0
   2.4950         0
   2.5000         0
