   0.0000   2674300
   0.0050   3026040
   0.0100   3215660
   0.0150   3164960
   0.0200   2917650
   0.0250   2474840
   0.0300   1909380
   0.0350   1405270
   0.0400   1062610
   0.0450    882872
   0.0500    821916
   0.0550    780955
   0.0600    770606
   0.0650    782124
   0.0700    809387
   0.0750    843681
   0.0800    875747
   0.0850    918027
   0.0900    956153
   0.0950    989191
   0.1000   1026290
   0.1050   1061360
   0.1100   1089470
   0.1150   1129200
   0.1200   1165060
   0.1250   1199410
   0.1300   1233960
   0.1350   1268620
   0.1400   1303440
   0.1450   1334040
   0.1500   1364670
   0.1550   1383350
   0.1600   1403370
   0.1650   1419390
   0.1700   1442410
   0.1750   1458280
   0.1800   1477360
   0.1850   1496060
   0.1900   1498800
   0.1950   1492590
   0.2000   1471470
   0.2050   1421270
   0.2100   1349670
   0.2150   1253340
   0.2200   1120250
   0.2250    977988
   0.2300    834864
   0.2350    733165
   0.2400    604227
   0.2450    466965
   0.2500    344410
   0.2550    251851
   0.2600    192875
   0.2650    159138
   0.2700    141048
   0.2750    128026
   0.2800    114500
   0.2850     99589
   0.2900     84495
   0.2950     70600
   0.3000     61430
   0.3050     56088
   0.3100     53419
   0.3150     51967
   0.3200     49305
   0.3250     45888
   0.3300     40768
   0.3350     35227
   0.3400     30955
   0.3450     28025
   0.3500     26979
   0.3550     26896
   0.3600     26868
   0.3650     25717
   0.3700     24144
   0.3750     22085
   0.3800     19027
   0.3850     16927
   0.3900     15302
   0.3950     14980
   0.4000     14902
   0.4050     15146
   0.4100     15221
   0.4150     14646
   0.4200     13495
   0.4250     12025
   0.4300     10586
   0.4350      9512
   0.4400      8915
   0.4450      9052
   0.4500      9077
   0.4550      9257
   0.4600      9373
   0.4650      9131
   0.4700      8286
   0.4750      7136
   0.4800      6357
   0.4850      5710
   0.4900      5498
   0.4950      5703
   0.5000      5795
   0.5050      6045
   0.5100      6047
   0.5150      5780
   0.5200      5267
   0.5250      4679
   0.5300      4053
   0.5350      3664
   0.5400      3481
   0.5450      3548
   0.5500      3836
   0.5550      3990
   0.5600      4082
   0.5650      3989
   0.5700      3530
   0.5750      3205
   0.5800      2818
   0.5850      2390
   0.5900      2287
   0.5950      2369
   0.6000      2527
   0.6050      2736
   0.6100      2861
   0.6150      2675
   0.6200      2487
   0.6250      2204
   0.6300      1986
   0.6350      1799
   0.6400      1594
   0.6450      1583
   0.6500      1738
   0.6550      1906
   0.6600      1912
   0.6650      1856
   0.6700      1868
   0.6750      1673
   0.6800      1479
   0.6850      1213
   0.6900      1148
   0.6950      1050
   0.7000      1120
   0.7050      1221
   0.7100      1254
   0.7150      1257
   0.7200      1331
   0.7250      1279
   0.7300      1079
   0.7350       921
   0.7400       878
   0.7450       786
   0.7500       856
   0.7550       875
   0.7600       863
   0.7650       946
   0.7700       947
   0.7750       944
   0.7800       838
   0.7850       728
   0.7900       617
   0.7950       556
   0.8000       537
   0.8050       603
   0.8100       610
   0.8150       688
   0.8200       734
   0.8250       664
   0.8300       638
   0.8350       608
   0.8400       459
   0.8450       448
   0.8500       425
   0.8550       400
   0.8600       405
   0.8650       494
   0.8700       489
   0.8750       486
   0.8800       486
   0.8850       433
   0.8900       374
   0.8950       338
   0.9000       308
   0.9050       277
   0.9100       296
   0.9150       330
   0.9200       392
   0.9250       384
   0.9300       338
   0.9350       327
   0.9400       289
   0.9450       280
   0.9500       242
   0.9550       216
   0.9600       252
   0.9650       232
   0.9700       276
   0.9750       244
   0.9800       285
   0.9850       239
   0.9900       247
   0.9950       229
   1.0000       178
   1.0050       170
   1.0100       172
   1.0150       158
   1.0200       167
   1.0250       178
   1.0300       177
   1.0350       175
   1.0400       208
   1.0450       174
   1.0500       153
   1.0550       137
   1.0600       133
   1.0650       123
   1.0700       146
   1.0750       141
   1.0800       156
   1.0850       143
   1.0900       160
   1.0950       121
   1.1000       136
   1.1050       120
   1.1100       111
   1.1150        89
   1.1200       114
   1.1250        87
   1.1300       108
   1.1350       117
   1.1400       110
   1.1450       117
   1.1500       108
   1.1550        94
   1.1600        75
   1.1650        63
   1.1700        66
   1.1750        79
   1.1800        74
   1.1850        73
   1.1900        72
   1.1950        84
   1.2000        87
   1.2050        72
   1.2100        65
   1.2150        68
   1.2200        63
   1.2250        55
   1.2300        47
   1.2350        56
   1.2400        67
   1.2450        80
   1.2500        61
   1.2550        55
   1.2600        49
   1.2650        47
   1.2700        32
   1.2750        35
   1.2800        61
   1.2850        48
   1.2900        47
   1.2950        33
   1.3000        46
   1.3050        55
   1.3100        38
   1.3150        37
   1.3200        39
   1.3250        30
   1.3300        32
   1.3350        38
   1.3400        40
   1.3450        40
   1.3500        40
   1.3550        44
   1.3600        47
   1.3650        42
   1.3700        20
   1.3750        25
   1.3800        27
   1.3850        30
   1.3900        27
   1.3950        39
   1.4000        24
   1.4050        35
   1.4100        27
   1.4150        35
   1.4200        20
   1.4250        30
   1.4300        29
   1.4350        26
   1.4400        23
   1.4450        23
   1.4500        19
   1.4550        25
   1.4600        23
   1.4650        16
   1.4700        28
   1.4750        16
   1.4800        11
   1.4850        17
   1.4900        17
   1.4950        16
   1.5000        16
   1.5050        28
   1.5100        15
   1.5150        18
   1.5200        12
   1.5250        16
   1.5300        18
   1.5350        15
   1.5400        14
   1.5450        16
   1.5500        10
   1.5550        17
   1.5600        11
   1.5650        14
   1.5700        10
   1.5750        10
   1.5800         9
   1.5850        12
   1.5900        12
   1.5950        18
   1.6000        13
   1.6050        15
   1.6100        11
   1.6150         8
   1.6200         4
   1.6250         9
   1.6300         9
   1.6350        14
   1.6400        10
   1.6450         4
   1.6500         4
   1.6550        12
   1.6600        12
   1.6650         9
   1.6700         9
   1.6750        10
   1.6800         9
   1.6850         8
   1.6900         7
   1.6950         6
   1.7000         3
   1.7050         8
   1.7100         9
   1.7150         8
   1.7200         8
   1.7250        14
   1.7300         6
   1.7350         4
   1.7400         4
   1.7450         3
   1.7500         8
   1.7550         3
   1.7600         7
   1.7650         4
   1.7700         4
   1.7750         6
   1.7800         7
   1.7850         6
   1.7900         4
   1.7950         8
   1.8000         5
   1.8050         5
   1.8100         4
   1.8150         2
   1.8200         9
   1.8250         2
   1.8300         5
   1.8350         3
   1.8400         6
   1.8450         6
   1.8500         5
   1.8550         0
   1.8600         3
   1.8650         4
   1.8700         1
   1.8750         1
   1.8800         8
   1.8850         3
   1.8900         5
   1.8950         3
   1.9000         5
   1.9050         2
   1.9100         3
   1.9150         1
   1.9200         3
   1.9250         2
   1.9300         4
   1.9350         3
   1.9400         4
   1.9450         3
   1.9500         1
   1.9550         2
   1.9600         4
   1.9650         5
   1.9700         5
   1.9750         0
   1.9800         2
   1.9850         5
   1.9900         2
   1.9950         5
   2.0000         5
   2.0050         0
   2.0100         3
   2.0150         4
   2.0200         3
   2.0250         2
   2.0300         2
   2.0350         2
   2.0400         6
   2.0450         3
   2.0500         3
   2.0550         3
   2.0600         2
   2.0650         2
   2.0700         2
   2.0750         2
   2.0800         0
   2.0850         2
   2.0900         1
   2.0950         1
   2.1000         4
   2.1050         0
   2.1100         0
   2.1150         3
   2.1200         4
   2.1250         2
   2.1300         0
   2.1350         4
   2.1400         4
   2.1450         2
   2.1500         0
   2.1550         2
   2.1600         1
   2.1650         0
   2.1700         0
   2.1750         1
   2.1800         1
   2.1850         1
   2.1900         0
   2.1950         0
   2.2000         2
   2.2050         0
   2.2100         1
   2.2150         3
   2.2200         1
   2.2250         1
   2.2300         1
   2.2350         1
   2.2400         0
   2.2450         2
   2.2500         1
   2.2550         2
   2.2600         0
   2.2650         0
   2.2700         1
   2.2750         0
   2.2800         1
   2.2850         2
   2.2900         0
   2.2950         2
   2.3000         0
   2.3050         3
   2.3100         0
   2.3150         0
   2.3200         1
   2.3250         2
   2.3300         0
   2.3350         2
   2.3400         0
   2.3450         0
   2.3500         1
   2.3550         0
   2.3600         1
   2.3650         1
   2.3700         3
   2.3750         0
   2.3800         0
   2.3850         2
   2.3900         1
   2.3950         0
   2.4000         0
   2.4050         0
   2.4100         0
   2.4150         0
   2.4200         1
   2.4250         0
   2.4300         0
   2.4350         1
   2.4400         0
   2.4450         1
   2.4500         0
   2.4550         1
   2.4600         0
   2.4650         1
   2.4700         0
   2.4750         0
   2.4800         0
   2.4850         0
   2.4900         1
   2.4950         1
   2.5000         2
